# Trajectory data computed from the USG input file.
#
# Reference time (UTC) = 2020-02-28 09:30:34
# Reference JD         = 2458907.896227
# Begin point
#     Lat    =  +45.678839 deg
#     Lon    =   15.114838 deg
#     Height =  37.3343 km
# End point
#     Lat    =  +45.812353 deg
#     Lon    =   15.021030 deg
#     Height =  19.5069 km
# Radiant
#     RA     = 332.1527 deg
#     Dec    =  +5.5987 deg
#     Az     = 154.9788 deg
#     Alt    = +47.3466 deg
#
# Time (s), Ht. (km),  Lat. (deg),  Lon. (deg), AbsMag
 -0.179000,  37.3343,  +45.678839,   15.114838, -16.37
 -0.176000,  37.2868,  +45.679193,   15.114590, -16.14
 -0.172000,  37.2235,  +45.679666,   15.114258, -16.08
 -0.169000,  37.1760,  +45.680021,   15.114010, -16.82
 -0.166000,  37.1284,  +45.680375,   15.113761, -13.06
 -0.162000,  37.0651,  +45.680848,   15.113430, -16.89
 -0.159000,  37.0176,  +45.681202,   15.113181, -17.50
 -0.156000,  36.9701,  +45.681557,   15.112933, -15.25
 -0.152000,  36.9067,  +45.682030,   15.112601, -16.82
 -0.149000,  36.8592,  +45.682384,   15.112353, -15.53
 -0.145000,  36.7959,  +45.682857,   15.112021, -14.06
 -0.142000,  36.7484,  +45.683212,   15.111773, -17.16
 -0.139000,  36.7009,  +45.683566,   15.111524, -15.53
 -0.132000,  36.5900,  +45.684394,   15.110944, -15.58
 -0.125000,  36.4792,  +45.685221,   15.110364, -16.42
 -0.122000,  36.4317,  +45.685576,   15.110116, -11.83
 -0.118000,  36.3683,  +45.686048,   15.109784, -11.48
 -0.115000,  36.3208,  +45.686403,   15.109535, -16.86
 -0.112000,  36.2733,  +45.686758,   15.109287, -17.35
 -0.091000,  35.9408,  +45.689240,   15.107546, -17.05
 -0.085000,  35.8458,  +45.689949,   15.107049, -17.36
 -0.081000,  35.7824,  +45.690422,   15.106717, -17.44
 -0.078000,  35.7349,  +45.690777,   15.106469, -17.38
 -0.075000,  35.6874,  +45.691132,   15.106220, -17.52
 -0.071000,  35.6241,  +45.691604,   15.105888, -17.52
 -0.068000,  35.5766,  +45.691959,   15.105639, -16.66
 -0.064000,  35.5133,  +45.692432,   15.105308, -15.05
 -0.061000,  35.4658,  +45.692787,   15.105059, -17.76
 -0.058000,  35.4183,  +45.693141,   15.104810, -17.77
 -0.054000,  35.3549,  +45.693614,   15.104479, -18.52
 -0.051000,  35.3074,  +45.693969,   15.104230, -18.53
 -0.048000,  35.2599,  +45.694324,   15.103981, -18.60
 -0.044000,  35.1966,  +45.694797,   15.103650, -18.81
 -0.041000,  35.1491,  +45.695152,   15.103401, -18.90
 -0.034000,  35.0383,  +45.695979,   15.102820, -19.63
 -0.027000,  34.9275,  +45.696807,   15.102240, -19.97
 -0.024000,  34.8800,  +45.697162,   15.101991, -19.97
 -0.021000,  34.8325,  +45.697517,   15.101742, -20.12
 -0.017000,  34.7691,  +45.697990,   15.101410, -20.18
 -0.014000,  34.7216,  +45.698344,   15.101161, -20.25
 -0.011000,  34.6741,  +45.698699,   15.100912, -20.42
 -0.007000,  34.6108,  +45.699172,   15.100581, -20.43
 -0.004000,  34.5633,  +45.699527,   15.100332, -20.51
  0.000000,  34.5000,  +45.700000,   15.100000, -20.62
  0.003000,  34.4525,  +45.700355,   15.099751, -20.57
  0.006000,  34.4050,  +45.700710,   15.099502, -20.58
  0.010000,  34.3417,  +45.701183,   15.099170, -20.58
  0.013000,  34.2942,  +45.701537,   15.098921, -20.52
  0.016000,  34.2467,  +45.701892,   15.098673, -20.49
  0.020000,  34.1834,  +45.702365,   15.098341, -20.50
  0.023000,  34.1359,  +45.702720,   15.098092, -20.54
  0.030000,  34.0251,  +45.703548,   15.097511, -20.42
  0.033000,  33.9776,  +45.703903,   15.097262, -20.45
  0.037000,  33.9143,  +45.704376,   15.096930, -20.39
  0.040000,  33.8668,  +45.704731,   15.096681, -20.28
  0.044000,  33.8035,  +45.705204,   15.096349, -20.26
  0.050000,  33.7085,  +45.705914,   15.095851, -20.15
  0.054000,  33.6452,  +45.706387,   15.095519, -20.12
  0.060000,  33.5502,  +45.707097,   15.095021, -19.86
  0.064000,  33.4869,  +45.707570,   15.094689, -19.74
  0.067000,  33.4394,  +45.707925,   15.094440, -19.73
  0.071000,  33.3761,  +45.708398,   15.094108, -19.73
  0.074000,  33.3286,  +45.708753,   15.093859, -19.51
  0.077000,  33.2811,  +45.709108,   15.093610, -19.66
  0.081000,  33.2178,  +45.709581,   15.093278, -19.67
  0.087000,  33.1228,  +45.710291,   15.092780, -19.49
  0.091000,  33.0595,  +45.710764,   15.092448, -19.56
  0.094000,  33.0120,  +45.711119,   15.092199, -19.65
  0.098000,  32.9487,  +45.711593,   15.091867, -19.49
  0.101000,  32.9012,  +45.711948,   15.091618, -19.56
  0.104000,  32.8537,  +45.712302,   15.091368, -19.61
  0.108000,  32.7904,  +45.712776,   15.091036, -19.68
  0.111000,  32.7429,  +45.713131,   15.090787, -19.53
  0.114000,  32.6955,  +45.713486,   15.090538, -19.55
  0.118000,  32.6321,  +45.713959,   15.090206, -19.58
  0.121000,  32.5847,  +45.714314,   15.089957, -19.57
  0.125000,  32.5214,  +45.714787,   15.089625, -19.45
  0.128000,  32.4739,  +45.715142,   15.089375, -19.48
  0.131000,  32.4264,  +45.715497,   15.089126, -19.54
  0.135000,  32.3631,  +45.715971,   15.088794, -19.59
  0.138000,  32.3156,  +45.716326,   15.088545, -19.50
  0.141000,  32.2681,  +45.716681,   15.088296, -19.51
  0.145000,  32.2048,  +45.717154,   15.087963, -19.47
  0.148000,  32.1573,  +45.717509,   15.087714, -19.42
  0.152000,  32.0940,  +45.717982,   15.087382, -19.33
  0.155000,  32.0466,  +45.718337,   15.087133, -19.26
  0.158000,  31.9991,  +45.718693,   15.086884, -19.32
  0.162000,  31.9358,  +45.719166,   15.086551, -19.33
  0.165000,  31.8883,  +45.719521,   15.086302, -19.33
  0.168000,  31.8408,  +45.719876,   15.086053, -19.40
  0.172000,  31.7775,  +45.720349,   15.085720, -19.43
  0.175000,  31.7300,  +45.720705,   15.085471, -19.41
  0.178000,  31.6826,  +45.721060,   15.085222, -19.22
  0.182000,  31.6193,  +45.721533,   15.084890, -19.23
  0.185000,  31.5718,  +45.721888,   15.084640, -19.24
  0.189000,  31.5085,  +45.722362,   15.084308, -19.29
  0.192000,  31.4610,  +45.722717,   15.084059, -19.29
  0.195000,  31.4135,  +45.723072,   15.083809, -19.25
  0.199000,  31.3502,  +45.723545,   15.083477, -19.22
  0.202000,  31.3028,  +45.723900,   15.083228, -19.18
  0.205000,  31.2553,  +45.724256,   15.082978, -19.26
  0.209000,  31.1920,  +45.724729,   15.082646, -19.22
  0.212000,  31.1445,  +45.725084,   15.082397, -19.24
  0.216000,  31.0812,  +45.725558,   15.082064, -18.95
  0.219000,  31.0337,  +45.725913,   15.081815, -19.17
  0.222000,  30.9863,  +45.726268,   15.081565, -19.05
  0.226000,  30.9230,  +45.726741,   15.081233, -18.95
  0.229000,  30.8755,  +45.727097,   15.080984, -19.12
  0.232000,  30.8280,  +45.727452,   15.080734, -19.19
  0.236000,  30.7647,  +45.727925,   15.080402, -19.12
  0.239000,  30.7173,  +45.728281,   15.080152, -19.16
  0.243000,  30.6540,  +45.728754,   15.079820, -19.13
  0.246000,  30.6065,  +45.729109,   15.079570, -19.08
  0.249000,  30.5590,  +45.729464,   15.079321, -19.15
  0.253000,  30.4958,  +45.729938,   15.078988, -18.71
  0.256000,  30.4483,  +45.730293,   15.078739, -19.15
  0.263000,  30.3375,  +45.731122,   15.078157, -18.99
  0.266000,  30.2901,  +45.731477,   15.077908, -18.96
  0.270000,  30.2268,  +45.731951,   15.077575, -19.13
  0.273000,  30.1793,  +45.732306,   15.077326, -18.86
  0.276000,  30.1318,  +45.732661,   15.077076, -19.09
  0.280000,  30.0685,  +45.733135,   15.076743, -19.13
  0.283000,  30.0211,  +45.733490,   15.076494, -19.22
  0.287000,  29.9578,  +45.733964,   15.076161, -19.13
  0.290000,  29.9103,  +45.734319,   15.075912, -18.85
  0.293000,  29.8629,  +45.734674,   15.075662, -19.04
  0.297000,  29.7996,  +45.735148,   15.075330, -19.16
  0.300000,  29.7521,  +45.735503,   15.075080, -18.57
  0.303000,  29.7046,  +45.735859,   15.074830, -18.89
  0.307000,  29.6414,  +45.736332,   15.074498, -18.83
  0.310000,  29.5939,  +45.736688,   15.074248, -18.70
  0.314000,  29.5306,  +45.737161,   15.073915, -18.60
  0.317000,  29.4832,  +45.737517,   15.073666, -18.81
  0.320000,  29.4357,  +45.737872,   15.073416, -18.84
  0.324000,  29.3724,  +45.738346,   15.073084, -18.49
  0.327000,  29.3249,  +45.738701,   15.072834, -18.63
  0.330000,  29.2775,  +45.739056,   15.072584, -18.70
  0.334000,  29.2142,  +45.739530,   15.072252, -18.80
  0.337000,  29.1667,  +45.739885,   15.072002, -18.80
  0.341000,  29.1035,  +45.740359,   15.071669, -18.81
  0.344000,  29.0560,  +45.740715,   15.071420, -19.07
  0.347000,  29.0085,  +45.741070,   15.071170, -18.70
  0.351000,  28.9453,  +45.741544,   15.070837, -18.57
  0.354000,  28.8978,  +45.741899,   15.070587, -18.81
  0.357000,  28.8504,  +45.742254,   15.070338, -18.51
  0.361000,  28.7871,  +45.742728,   15.070005, -18.33
  0.364000,  28.7396,  +45.743084,   15.069755, -18.92
  0.368000,  28.6763,  +45.743557,   15.069422, -18.60
  0.371000,  28.6289,  +45.743913,   15.069173, -18.56
  0.374000,  28.5814,  +45.744268,   15.068923, -18.97
  0.378000,  28.5182,  +45.744742,   15.068590, -18.79
  0.384000,  28.4232,  +45.745453,   15.068091, -18.65
  0.388000,  28.3600,  +45.745927,   15.067758, -18.67
  0.391000,  28.3125,  +45.746282,   15.067508, -18.54
  0.394000,  28.2651,  +45.746638,   15.067258, -18.84
  0.398000,  28.2018,  +45.747112,   15.066925, -18.89
  0.401000,  28.1543,  +45.747467,   15.066676, -18.51
  0.405000,  28.0911,  +45.747941,   15.066343, -18.90
  0.408000,  28.0436,  +45.748296,   15.066093, -18.62
  0.411000,  27.9962,  +45.748652,   15.065843, -18.56
  0.415000,  27.9329,  +45.749126,   15.065510, -18.48
  0.418000,  27.8854,  +45.749481,   15.065260, -18.64
  0.421000,  27.8380,  +45.749837,   15.065011, -18.51
  0.425000,  27.7747,  +45.750311,   15.064678, -18.70
  0.428000,  27.7273,  +45.750666,   15.064428, -18.45
  0.432000,  27.6640,  +45.751140,   15.064095, -18.49
  0.435000,  27.6165,  +45.751495,   15.063845, -18.32
  0.438000,  27.5691,  +45.751851,   15.063595, -18.55
  0.442000,  27.5058,  +45.752325,   15.063262, -17.83
  0.445000,  27.4584,  +45.752680,   15.063012, -18.14
  0.448000,  27.4109,  +45.753036,   15.062762, -18.30
  0.452000,  27.3477,  +45.753510,   15.062429, -18.67
  0.455000,  27.3002,  +45.753865,   15.062179, -17.88
  0.459000,  27.2369,  +45.754340,   15.061846, -18.24
  0.462000,  27.1895,  +45.754695,   15.061596, -18.59
  0.465000,  27.1421,  +45.755051,   15.061346, -18.28
  0.469000,  27.0788,  +45.755525,   15.061013, -18.32
  0.472000,  27.0313,  +45.755880,   15.060763, -18.55
  0.476000,  26.9681,  +45.756354,   15.060430, -18.32
  0.479000,  26.9206,  +45.756710,   15.060180, -18.17
  0.482000,  26.8732,  +45.757065,   15.059930, -17.96
  0.486000,  26.8099,  +45.757539,   15.059597, -18.46
  0.489000,  26.7625,  +45.757895,   15.059347, -18.09
  0.492000,  26.7150,  +45.758251,   15.059097, -18.34
  0.496000,  26.6518,  +45.758725,   15.058764, -17.75
  0.499000,  26.6043,  +45.759080,   15.058514, -18.15
  0.503000,  26.5411,  +45.759554,   15.058181, -16.27
  0.506000,  26.4936,  +45.759910,   15.057931, -15.88
  0.509000,  26.4462,  +45.760266,   15.057681, -17.36
  0.513000,  26.3829,  +45.760740,   15.057347, -17.42
  0.516000,  26.3355,  +45.761095,   15.057097, -16.96
  0.519000,  26.2880,  +45.761451,   15.056847, -17.48
  0.523000,  26.2248,  +45.761925,   15.056514, -18.28
  0.526000,  26.1773,  +45.762281,   15.056264, -17.70
  0.530000,  26.1141,  +45.762755,   15.055931, -17.28
  0.533000,  26.0667,  +45.763111,   15.055681, -17.54
  0.536000,  26.0192,  +45.763466,   15.055431, -17.81
  0.540000,  25.9560,  +45.763940,   15.055097, -17.37
  0.543000,  25.9085,  +45.764296,   15.054847, -17.46
  0.546000,  25.8611,  +45.764652,   15.054597, -17.06
  0.550000,  25.7978,  +45.765126,   15.054264, -16.94
  0.553000,  25.7504,  +45.765482,   15.054014, -15.52
  0.557000,  25.6871,  +45.765956,   15.053680, -16.57
  0.560000,  25.6397,  +45.766312,   15.053430, -15.32
  0.563000,  25.5923,  +45.766667,   15.053180, -17.83
  0.567000,  25.5290,  +45.767141,   15.052846, -17.04
  0.570000,  25.4816,  +45.767497,   15.052596, -16.71
  0.573000,  25.4341,  +45.767853,   15.052346, -16.85
  0.577000,  25.3709,  +45.768327,   15.052013, -17.64
  0.580000,  25.3235,  +45.768683,   15.051763, -17.58
  0.584000,  25.2602,  +45.769157,   15.051429, -15.98
  0.587000,  25.2128,  +45.769513,   15.051179, -13.53
  0.590000,  25.1653,  +45.769869,   15.050929, -17.12
  0.604000,  24.9440,  +45.771529,   15.049761, -16.16
  0.607000,  24.8965,  +45.771885,   15.049511, -15.36
  0.610000,  24.8491,  +45.772240,   15.049261, -12.52
  0.617000,  24.7384,  +45.773070,   15.048677, -16.03
  0.624000,  24.6278,  +45.773901,   15.048093, -14.93
  0.627000,  24.5803,  +45.774256,   15.047843, -14.39
  0.631000,  24.5171,  +45.774731,   15.047509, -14.84
  0.634000,  24.4697,  +45.775087,   15.047259, -16.86
  0.637000,  24.4222,  +45.775442,   15.047009, -15.40
  0.681000,  23.7266,  +45.780661,   15.043338, -16.17
  0.688000,  23.6160,  +45.781492,   15.042754, -16.13
  0.695000,  23.5053,  +45.782322,   15.042169, -16.58
  0.698000,  23.4579,  +45.782678,   15.041919, -15.93
  0.705000,  23.3472,  +45.783509,   15.041335, -16.71
  0.715000,  23.1891,  +45.784695,   15.040500, -16.06
  0.725000,  23.0311,  +45.785881,   15.039665, -13.19
  0.739000,  22.8098,  +45.787543,   15.038496, -13.65
  0.742000,  22.7624,  +45.787898,   15.038246, -15.37
  0.769000,  22.3356,  +45.791102,   15.035991, -15.72
  0.773000,  22.2724,  +45.791577,   15.035657, -15.71
  0.779000,  22.1775,  +45.792289,   15.035156, -17.20
  0.783000,  22.1143,  +45.792764,   15.034822, -16.20
  0.789000,  22.0195,  +45.793476,   15.034321, -13.24
  0.799000,  21.8614,  +45.794663,   15.033485, -15.68
  0.810000,  21.6876,  +45.795968,   15.032566, -16.59
  0.813000,  21.6402,  +45.796325,   15.032316, -17.26
  0.820000,  21.5295,  +45.797155,   15.031731, -15.34
  0.826000,  21.4347,  +45.797868,   15.031230, -16.76
  0.830000,  21.3715,  +45.798342,   15.030895, -17.04
  0.833000,  21.3241,  +45.798699,   15.030645, -14.21
  0.837000,  21.2609,  +45.799173,   15.030310, -16.23
  0.840000,  21.2135,  +45.799529,   15.030060, -16.41
  0.843000,  21.1661,  +45.799886,   15.029809, -16.84
  0.847000,  21.1028,  +45.800360,   15.029475, -16.41
  0.857000,  20.9448,  +45.801548,   15.028639, -16.21
  0.867000,  20.7868,  +45.802735,   15.027803, -16.06
  0.870000,  20.7394,  +45.803091,   15.027552, -16.15
  0.877000,  20.6288,  +45.803922,   15.026967, -12.84
  0.880000,  20.5814,  +45.804278,   15.026716, -16.99
  0.894000,  20.3601,  +45.805941,   15.025546, -16.59
  0.924000,  19.8861,  +45.809503,   15.023038, -17.02
  0.928000,  19.8229,  +45.809978,   15.022703, -15.64
  0.931000,  19.7755,  +45.810334,   15.022452, -15.54
  0.941000,  19.6175,  +45.811522,   15.021616, -15.36
  0.945000,  19.5543,  +45.811997,   15.021281, -16.41
